#DESI TS - Eff from Color cuts (version Jul 2016)
#Counts in r using PLE+LEDE luminosity function from NPD+ 2015
#1D ========= (0.2 dz bins, values are for bin center) 
0.1 1.46162
0.3 4.82618
0.5 7.29476
0.7 10.4757
0.9 13.9629
1.1 17.662
1.3 20.0506
1.5 20.0015
1.7 18.0769
1.9 15.8415
2.1 13.3616
2.3 10.0373
2.5 7.13822
2.7 4.71356
2.9 2.97786
3.1 1.78049
3.3 0.952474
3.5 0.522326
3.7 0.29509
3.9 0.131283
4.1 0.0490635
4.3 0.0136305
4.5 0.000694
4.7 0.0003695
4.9 0.0003339
5.1 0
